! material:	MgF2
! source:	SOPRA Database
! range:	.25-0.9µm

Wavelength (µm) N   K
.25	1.4117	0
.275	1.4044	0
.3	1.3996	0
.325	1.3961	0
.35	1.3935	0
.375	1.3915	0
.4	1.3899	0
.425	1.3886	0
.45	1.3875	0
.475	1.3865	0
.5	1.3857	0
.525	1.385	0
.55	1.3844	0
.575	1.3839	0
.6	1.3834	0
.625	1.383	0
.65	1.3826	0
.675	1.3823	0
.7	1.3819	0
.725	1.3816	0
.75	1.3814	0
.775	1.3811	0
.8	1.3809	0
.825	1.3807	0
.85	1.3805	0
.875	1.3803	0
.9	1.3802	0

